34.21  11.25
34.62  13.5
35.03  -5
35.45  13.25
35.86  19
36.27  -0.5
36.68  -1.25
37.09  -21.5
37.5  -24.5
37.91  -3
38.32  -11.25
38.74  27.25
39.15  -24.5
39.56  36.75
39.97  -6
40.38  -8
40.79  28.75
41.2  -3.75
41.61  40.75
42.02  -14
42.43  41
42.85  27.75
43.26  -9.5
43.67  46.25
44.08  10
44.49  70.75
44.9  18.75
45.31  35.75
45.72  99
46.13  88.5
46.54  69.5
46.95  118.75
47.36  155.25
47.77  139.25
48.18  177.75
48.59  126.5
49  177.5
49.42  231.25
49.83  285.5
50.24  271.5
50.65  318
51.06  330.5
51.47  346.75
51.88  394
52.29  386.75
52.7  383.25
53.11  387.25
53.52  440.75
53.93  439
54.34  417.5
54.75  449.5
55.16  469
55.57  434.25
55.98  446
56.39  458.5
56.8  431.25
57.21  436.5
57.62  484.75
58.03  471.25
58.44  485.75
58.85  507.25
59.26  478
59.67  461
60.08  462
60.49  465.25
60.89  490.75
61.3  462.25
61.71  469
62.12  470.5
62.53  443.5
62.94  452.5
63.35  447.75
63.76  456.25
64.17  511.5
64.58  463
64.99  445.25
65.4  437
65.81  444.75
66.22  486.75
66.63  441.25
67.04  464.5
67.44  470.75
67.85  489.25
68.26  478
68.67  446.75
69.08  499.5
69.49  504.75
69.9  474.25
70.31  491
70.72  497
71.13  440.5
71.53  502
71.94  472
72.35  512
72.76  468.75
73.17  451.75
73.58  463.25
73.99  429.5
74.4  483.5
74.8  452
75.21  426
75.62  445.75
76.03  485.25
76.44  469
76.85  498
77.26  404.5
77.66  492.5
78.07  479.25
78.48  482.75
78.89  484.75
79.3  473
79.71  493.5
80.11  479.5
80.52  465
80.93  475
81.34  470.25
81.75  496.75
82.15  449
82.56  484.25
82.97  480
83.38  488.5
83.79  472.5
84.2  458.5
84.6  506.5
85.01  463.25
85.42  482.75
85.83  513.5
86.23  459.25
86.64  505.5
87.05  484
87.46  487.5
87.87  501.75
88.27  531.25
88.68  500.25
89.09  491.5
89.5  495.75
89.9  477.75
90.31  453
90.72  483.75
91.13  455.75
91.53  470.75
91.94  483.75
92.35  456
92.76  484.75
93.16  501.5
93.57  472.75
93.98  487
94.39  498.5
94.79  460
95.2  469.5
95.61  447.5
96.01  514
96.42  528
96.83  404.25
97.24  469.5
97.64  463.5
98.05  466.75
98.46  448.75
98.86  480.75
99.27  504.75
99.68  475.25
100.08  442.75
100.49  498.75
100.9  478.25
101.3  440.75
101.71  483
102.12  476
102.52  494
102.93  436.25
103.34  458
103.74  438.75
104.15  417.5
104.56  432
104.96  435.25
105.37  444.25
105.78  423.25
106.18  462.5
106.59  470.25
107  463.5
107.4  488.75
107.81  471.25
108.22  512.25
108.62  491
109.03  494.5
109.43  491
109.84  454
110.25  456
110.65  474.75
111.06  470.25
111.47  437.25
111.87  483.5
112.28  467.25
112.68  490.75
113.09  416
113.5  446
113.9  507.25
114.31  499
114.71  473.5
115.12  505.75
115.52  471
115.93  545.75
116.34  517.5
116.74  489.75
117.15  502
117.55  517
117.96  492.25
118.36  474.5
118.77  514.25
119.18  526.5
119.58  506.5
119.99  521.75
120.39  507.5
120.8  481.5
121.2  502.25
121.61  509.75
122.01  465.75
122.42  482.75
122.82  525.25
123.23  493
123.64  525.5
124.04  464.5
124.45  466.25
124.85  461.75
125.26  498.25
125.66  518.25
126.07  509.5
126.47  503.75
126.88  523.25
127.28  491.25
127.69  503.5
128.09  624.25
128.5  615.25
128.9  543
129.31  474.5
129.71  480.25
130.12  472.75
130.52  522.75
130.92  461
131.33  488.75
131.73  513.25
132.14  481
132.54  512.5
132.95  478
133.35  488
133.76  531
134.16  497
134.57  524.5
134.97  500.75
135.38  504.75
135.78  518.5
136.18  518.75
136.59  537
136.99  529.75
137.4  489.25
137.8  508.25
138.21  487.5
138.61  497.5
139.01  506.25
139.42  507.5
139.82  528.5
140.23  477.5
140.63  507.25
141.03  512.25
141.44  458
141.84  505.25
142.25  528
142.65  524.25
143.05  503.5
143.46  525
143.86  474.75
144.27  541.75
144.67  511.75
145.07  504.5
145.48  508.75
145.88  501.5
146.28  546
146.69  484
147.09  414.25
147.5  499.25
147.9  517.5
148.3  471.5
148.71  542.75
149.11  534.25
149.51  501.75
149.92  520.25
150.32  560
150.72  489.75
151.13  488.25
151.53  506.25
151.93  465.25
152.34  551.75
152.74  452.25
153.14  501.75
153.55  499.75
153.95  510
154.35  506
154.76  482.25
155.16  521
155.56  565
155.96  525
156.37  492
156.77  502.75
157.17  512.25
157.58  497.75
157.98  522.25
158.38  520
158.78  539
159.19  516.25
159.59  525.5
159.99  514.5
160.4  520.5
160.8  472.75
161.2  463.75
161.6  537.5
162.01  500.25
162.41  492.75
162.81  455.25
163.21  430
163.62  468.5
164.02  528.25
164.42  476
164.82  426
165.23  451.75
165.63  469.5
166.03  502
166.43  505
166.84  460.25
167.24  496.75
167.64  485.75
168.04  506.75
168.44  455.25
168.85  534
169.25  506.25
169.65  480.5
170.05  503.75
170.45  446
170.86  451.75
171.26  503.25
171.66  456.5
172.06  473.75
172.46  501
172.87  481.5
173.27  438.25
173.67  418.5
174.07  511.25
174.47  444
174.87  485.25
175.28  497.25
175.68  501.25
176.08  474.25
176.48  479.25
176.88  459.5
177.28  454.75
177.69  472.25
178.09  498.25
178.49  471.75
178.89  539.5
179.29  486.5
179.69  442.25
180.09  481.75
180.5  436.5
180.9  508
181.3  441.25
181.7  449.5
182.1  454
182.5  520.25
182.9  476
183.3  481.75
183.71  437
184.11  428.25
184.51  473.25
184.91  421.5
185.31  463
185.71  474
186.11  461.75
186.51  451.5
186.91  476.75
187.31  444.75
187.71  434.25
188.12  436.75
188.52  438.25
188.92  432
189.32  465.25
189.72  451.75
190.12  435
190.52  437.25
190.92  458.25
191.32  485.75
191.72  477
192.12  468.25
192.52  477.75
192.92  472.5
193.32  493.75
193.72  485.25
194.12  483.25
194.52  496.25
194.92  433
195.32  433.25
195.73  477.5
196.13  451.75
196.53  440.75
196.93  475.25
197.33  440.75
197.73  490
198.13  476.25
198.53  493.25
198.93  430
199.33  455.25
199.73  521.5
200.13  454
200.53  482.25
200.93  430.25
201.33  488.75
201.73  500.75
202.13  498.5
202.53  495.5
202.93  481.25
203.33  504.75
203.72  492
204.12  475
204.52  528
204.92  485.5
205.32  510
205.72  543
206.12  552.5
206.52  523.75
206.92  472.5
207.32  493
207.72  508.25
208.12  516.25
208.52  527.5
208.92  528.5
209.32  516.5
209.72  551.75
210.12  555
210.52  473.25
210.92  565
211.31  531.5
211.71  509.75
212.11  555.5
212.51  562.75
212.91  558.25
213.31  602.25
213.71  594
214.11  627.25
214.51  611.75
214.91  597.25
215.3  623.25
215.7  659.75
216.1  652.75
216.5  710
216.9  724.75
217.3  730.5
217.7  749.5
218.1  814
218.5  801
218.89  882.25
219.29  869.5
219.69  936.75
220.09  969.5
220.49  992
220.89  1030.75
221.29  1072
221.68  1037.5
222.08  1076
222.48  1066.75
222.88  1052.75
223.28  1065.75
223.68  1047
224.07  983.75
224.47  990
224.87  935.5
225.27  936.25
225.67  879.75
226.07  850.75
226.46  791.25
226.86  809.25
227.26  756.25
227.66  734.5
228.06  702
228.45  691.75
228.85  646.75
229.25  679.75
229.65  628.75
230.05  622.5
230.44  628.5
230.84  622.75
231.24  581.75
231.64  574.75
232.03  597
232.43  544.25
232.83  610.25
233.23  580.25
233.63  575.25
234.02  584.75
234.42  571.75
234.82  590.5
235.22  578.75
235.61  576.5
236.01  581
236.41  570.75
236.81  587.75
237.2  600.75
237.6  608.25
238  568.75
238.4  644.25
238.79  597
239.19  611.75
239.59  651.25
239.98  651
240.38  662.75
240.78  652.5
241.18  667.5
241.57  669.75
241.97  715.75
242.37  667.5
242.76  664.25
243.16  652.75
243.56  637.75
243.96  610
244.35  621.75
244.75  672.25
245.15  626.25
245.54  631
245.94  666
246.34  584
246.73  641.75
247.13  590.25
247.53  586
247.92  541.5
248.32  612.5
248.72  576
249.11  573
249.51  577
249.91  543
250.3  581.75
250.7  541
251.1  543.25
251.49  577
251.89  539.75
252.29  511.25
252.68  559.75
253.08  533
253.47  593.25
253.87  531
254.27  569.75
254.66  524.25
255.06  581.25
255.46  527.5
255.85  555.5
256.25  545.75
256.64  547.75
257.04  570.25
257.44  561.75
257.83  598.5
258.23  596
258.62  575.75
259.02  558.5
259.42  582
259.81  555.5
260.21  537
260.6  542
261  609
261.39  581.5
261.79  557.5
262.19  573
262.58  558.5
262.98  609.75
263.37  546.5
263.77  544
264.16  624.25
264.56  636.75
264.96  585.5
265.35  567.25
265.75  568.25
266.14  591.25
266.54  599.5
266.93  594.25
267.33  580.25
267.72  580.25
268.12  654.25
268.51  611.5
268.91  635
269.3  620
269.7  655.5
270.09  661.75
270.49  658.5
270.88  657
271.28  692.25
271.67  654.5
272.07  701.25
272.46  651
272.86  649
273.25  685.5
273.65  704
274.04  673.25
274.44  754.25
274.83  696.5
275.23  699.75
275.62  673
276.02  720
276.41  717.25
276.81  720.25
277.2  825
277.6  838
277.99  806.25
278.39  835.5
278.78  800.5
279.18  864
279.57  912
279.96  900.5
280.36  914.75
280.75  975.5
281.15  998.5
281.54  990
281.94  1036
282.33  1106.75
282.73  1157.5
283.12  1158.25
283.51  1142.75
283.91  1274.25
284.3  1295.25
284.7  1348.5
285.09  1406.5
285.48  1456.75
285.88  1498.5
286.27  1577.25
286.67  1623.25
287.06  1679.25
287.45  1721.25
287.85  1792.5
288.24  1879.75
288.64  1842.25
289.03  1837
289.42  1871
289.82  1899
290.21  1937.5
290.61  1845
291  1854
291.39  1818.5
291.79  1764.75
292.18  1809.75
292.57  1725.75
292.97  1729.75
293.36  1677.75
293.75  1631
294.15  1610
294.54  1637.75
294.94  1552.5
295.33  1568.25
295.72  1504
296.12  1451.75
296.51  1436.75
296.9  1358.25
297.3  1366.5
297.69  1366
298.08  1322.25
298.48  1237.25
298.87  1194
299.26  1193.25
299.65  1179.5
300.05  1112.25
300.44  1060.75
300.83  1061.75
301.23  1041.25
301.62  1002
302.01  973.25
302.41  928.75
302.8  910
303.19  893.25
303.58  915.75
303.98  859
304.37  827
304.76  854
305.16  779.5
305.55  784.5
305.94  768.75
306.33  755
306.73  754.25
307.12  732.75
307.51  743.5
307.9  712.75
308.3  652
308.69  659
309.08  682.25
309.47  678.5
309.87  661.75
310.26  624.5
310.65  636.5
311.04  615.25
311.44  603
311.83  630
312.22  635
312.61  639
313.01  570.25
313.4  561.75
313.79  618.25
314.18  595.75
314.57  579.75
314.97  612.5
315.36  552
315.75  565
316.14  541.75
316.53  569
316.93  514.25
317.32  551
317.71  592.75
318.1  566
318.49  537.75
318.89  559
319.28  509.75
319.67  534.25
320.06  537.5
320.45  556
320.84  510.75
321.24  525
321.63  538.75
322.02  547.5
322.41  491.25
322.8  491.5
323.19  474.25
323.59  523.75
323.98  495.75
324.37  512
324.76  481.5
325.15  487.75
325.54  489.25
325.93  518
326.33  509.25
326.72  454
327.11  473
327.5  522
327.89  521.75
328.28  514.75
328.67  485.75
329.06  486.25
329.46  486
329.85  531.75
330.24  452.5
330.63  478
331.02  492.5
331.41  454.5
331.8  468.25
332.19  481.25
332.58  518.75
332.97  492.75
333.36  529
333.76  489.5
334.15  440.5
334.54  483
334.93  478.25
335.32  504.25
335.71  455.5
336.1  484.5
336.49  493
336.88  448.5
337.27  461.25
337.66  448.5
338.05  457.25
338.44  441.25
338.83  495
339.22  483.5
339.61  480
340  441.25
340.4  420.5
340.79  459
341.18  456.75
341.57  445.5
341.96  452.25
342.35  442
342.74  414.5
343.13  432.75
343.52  482.25
343.91  464.75
344.3  465.75
344.69  471.25
345.08  484.5
345.47  455.25
345.86  402.5
346.25  443
346.64  460.25
347.03  479.25
347.42  461
347.81  462.25
348.2  443.75
348.59  464.25
348.98  478.75
349.37  456.5
349.76  512.75
350.15  484.25
350.54  447
350.93  475.25
351.31  459.5
351.7  445
352.09  494.5
352.48  425.75
352.87  467.5
353.26  443.75
353.65  450.25
354.04  488.25
354.43  510.75
354.82  526.25
355.21  515
355.6  460.25
355.99  467.75
356.38  471.75
356.77  456
357.16  459.75
357.55  516
357.93  506.5
358.32  507.5
358.71  516
359.1  515
359.49  493
359.88  489.25
360.27  503.5
360.66  448.5
361.05  498
361.44  530.75
361.82  476
362.21  537
362.6  531
362.99  519.75
363.38  566.25
363.77  491.75
364.16  500
364.55  495.5
364.93  490
365.32  465
365.71  492.25
366.1  537.5
366.49  545.5
366.88  494.5
367.27  481.75
367.65  533
368.04  506
368.43  518
368.82  520.75
369.21  532.75
369.6  477.75
369.99  522
370.37  490.25
370.76  513.75
371.15  537.25
371.54  490
371.93  495.5
372.31  506.75
372.7  504.75
373.09  554.25
373.48  516.25
373.87  473
374.26  464.25
374.64  562.5
375.03  496.75
375.42  534.5
375.81  530
376.2  549
376.58  555.25
376.97  527
377.36  582.75
377.75  495.25
378.13  531.5
378.52  528.25
378.91  545.25
379.3  575.5
379.69  517.5
380.07  594.5
380.46  559.25
380.85  607.25
381.24  519
381.62  558.5
382.01  546.5
382.4  514.25
382.79  578.75
383.17  541.25
383.56  609.25
383.95  599.5
384.34  590.75
384.72  605.75
385.11  566
385.5  548.25
385.88  593.25
386.27  606.5
386.66  552.75
387.05  580.25
387.43  651.5
387.82  597.25
388.21  621.25
388.6  574.25
388.98  576.25
389.37  617.75
389.76  631
390.14  635.25
390.53  680.25
390.92  654.25
391.3  608.5
391.69  621
392.08  698.75
392.46  628.5
392.85  708
393.24  705.25
393.62  758.25
394.01  745
394.4  709.25
394.78  697.75
395.17  773.75
395.56  800.25
395.94  828
396.33  832.25
396.72  792.75
397.1  914
397.49  873.25
397.88  894.5
398.26  980.25
398.65  975.25
399.04  1049
399.42  1136.75
399.81  1119
400.2  1128.5
400.58  1193.75
400.97  1211.5
401.35  1228.75
401.74  1254.5
402.13  1278.25
402.51  1303
402.9  1278.75
403.28  1322.25
403.67  1339.5
404.06  1404.5
404.44  1438.75
404.83  1489.5
405.22  1489
405.6  1496.75
405.99  1549.25
406.37  1529.75
406.76  1569.25
407.14  1552.75
407.53  1518.75
407.92  1531
408.3  1516.75
408.69  1476.5
409.07  1436.25
409.46  1430
409.84  1389.25
410.23  1422.5
410.62  1388
411  1348.75
411.39  1271.25
411.77  1255.5
412.16  1189.25
412.54  1214.25
412.93  1185
413.31  1276.75
413.7  1248.75
414.08  1229.75
414.47  1201.5
414.86  1158.75
415.24  1173.75
415.63  1109.75
416.01  974.75
416.4  989.75
416.78  897.75
417.17  857
417.55  857.5
417.94  850
418.32  859.75
418.71  811
419.09  765
419.48  857.25
419.86  782
420.25  716.75
420.63  763
421.02  755
421.4  749.5
421.79  719
422.17  702.25
422.56  681.75
422.94  671.75
423.33  655.75
423.71  659
424.1  625.5
424.48  611.5
424.86  656
425.25  641.75
425.63  656
426.02  593.25
426.4  606.5
426.79  583
427.17  607.5
427.56  542.75
427.94  518
428.32  558.75
428.71  603.75
429.09  553
429.48  552.75
429.86  509.25
430.25  609.5
430.63  608.25
431.01  511.75
431.4  570.75
431.78  559
432.17  545
432.55  568
432.94  565.5
433.32  527
433.7  527.75
434.09  528.5
434.47  504.75
434.86  536.25
435.24  484.75
435.62  529
436.01  550.75
436.39  557.25
436.77  556.5
437.16  502.25
437.54  544.25
437.93  530.5
438.31  511.75
438.69  516.5
439.08  541
439.46  528.5
439.84  487
440.23  482
440.61  508.75
441  465.75
441.38  457.75
441.76  525.5
442.15  537
442.53  493.75
442.91  526
443.3  495.25
443.68  482
444.06  482.25
444.45  492
444.83  499.25
445.21  467.25
445.6  489.75
445.98  480.5
446.36  503
446.75  530.75
447.13  461
447.51  459.75
447.89  538.5
448.28  452
448.66  456.25
449.04  480
449.43  487.5
449.81  444
450.19  496.75
450.58  484.5
450.96  460.25
451.34  532.25
451.72  478.75
452.11  486.75
452.49  488
452.87  505.75
453.25  477.25
453.64  454.25
454.02  433
454.4  459.5
454.79  481.25
455.17  466.25
455.55  466
455.93  458.5
456.32  488.25
456.7  446
457.08  462.75
457.46  418
457.85  415.75
458.23  493.5
458.61  447.25
458.99  468.75
459.37  485
459.76  461
460.14  462.75
460.52  480.25
460.9  424.25
461.29  454.75
461.67  470.75
462.05  454.25
462.43  470.5
462.81  480.5
463.2  462.25
463.58  449.5
463.96  465
464.34  503
464.72  421.75
465.11  492.25
465.49  425
465.87  484.25
466.25  483.75
466.63  442.75
467.02  477.75
467.4  436
467.78  474.25
468.16  464.75
468.54  450
468.92  471.75
469.31  452.75
469.69  372
470.07  451.5
470.45  421
470.83  449.25
471.21  450.25
471.59  453.75
471.98  455.75
472.36  424.5
472.74  385
473.12  437.5
473.5  430
473.88  402
474.26  434.5
474.65  455
475.03  460.75
475.41  495.75
475.79  454.25
476.17  476.25
476.55  462.25
476.93  453.25
477.31  443.25
477.69  439.75
478.08  424.25
478.46  392.5
478.84  418.75
479.22  456
479.6  455.25
479.98  439.5
480.36  447
480.74  483.75
481.12  499
481.5  512.25
481.88  462
482.27  438.25
482.65  529.5
483.03  446
483.41  531.5
483.79  466.5
484.17  504.75
484.55  473
484.93  529
485.31  501
485.69  507.25
486.07  511.75
486.45  448.75
486.83  520
487.21  494.75
487.59  497
487.97  500.5
488.35  541.5
488.73  511.25
489.11  505.75
489.49  540.75
489.87  546.25
490.26  565.25
490.64  530
491.02  523.75
491.4  549
491.78  525.25
492.16  534
492.54  564.5
492.92  527.75
493.3  527.25
493.68  552.75
494.06  507
494.44  503.75
494.82  578.75
495.2  535.75
495.58  508
495.96  536
496.34  518
496.71  542.5
497.09  552
497.47  538
497.85  538.25
498.23  528.5
498.61  513.75
498.99  524
499.37  534
499.75  524.75
500.13  503
500.51  464
500.89  489.25
501.27  480.25
501.65  535.75
502.03  475.25
502.41  506
502.79  467.5
503.17  482
503.55  536.25
503.93  564
504.31  508.25
504.68  486.5
505.06  487.25
505.44  504.75
505.82  439.25
506.2  481.5
506.58  462.75
506.96  473.75
507.34  455.75
507.72  462.5
508.1  441.5
508.48  441.5
508.85  466.75
509.23  402
509.61  401
509.99  469.5
510.37  445.75
510.75  416.25
511.13  437
511.51  485
511.89  450.75
512.26  442.25
512.64  394.75
513.02  437.75
513.4  456.25
513.78  402.25
514.16  409
514.54  420.75
514.91  405.5
515.29  434.5
515.67  417.25
516.05  415.5
516.43  376.5
516.81  401
517.19  460.75
517.56  410.25
517.94  421
518.32  467
518.7  427.5
519.08  431.75
519.45  432.5
519.83  408.5
520.21  434.75
520.59  472.5
520.97  381.5
521.35  440.25
521.72  435
522.1  454.5
522.48  397.5
522.86  385.5
523.24  413
523.61  390
523.99  425.75
524.37  398.75
524.75  428.75
525.13  437.25
525.5  436.75
525.88  446.5
526.26  407.5
526.64  462.75
527.01  393.25
527.39  410.25
527.77  389
528.15  375.75
528.53  408.5
528.9  384.75
529.28  416.5
529.66  403
530.04  395.25
530.41  380.75
530.79  462.5
531.17  453
531.55  418.25
531.92  468.25
532.3  443.75
532.68  436
533.06  393.5
533.43  385
533.81  428
534.19  370.25
534.56  396.5
534.94  411.75
535.32  433
535.7  399.5
536.07  462
536.45  407.75
536.83  383.75
537.2  336.75
537.58  382.5
537.96  399.5
538.34  367.5
538.71  437
539.09  432.25
539.47  430.5
539.84  401.5
540.22  411.75
540.6  447.75
540.97  370.5
541.35  394.5
541.73  432.25
542.1  423.75
542.48  401
542.86  431.75
543.23  395.75
543.61  451.25
543.99  402.25
544.36  364.75
544.74  378.75
545.12  430.25
545.49  400.75
545.87  385.75
546.25  445.75
546.62  377
547  414.75
547.38  373
547.75  416.75
548.13  376
548.5  421.75
548.88  409.5
549.26  426.25
549.63  424.75
550.01  427.25
550.39  416
550.76  407
551.14  421.25
551.51  412
551.89  453.5
552.27  436
552.64  423
553.02  450.25
553.39  383
553.77  436.25
554.15  447.25
554.52  431.75
554.9  425
555.27  389.5
555.65  435.75
556.02  468.5
556.4  405.5
556.78  436.75
557.15  443.5
557.53  446
557.9  398
558.28  444.5
558.65  438
559.03  408
559.41  397
559.78  463.25
560.16  399.25
560.53  440.25
560.91  481.75
561.28  431.75
561.66  390.25
562.03  441.75
562.41  417.25
562.78  455.75
563.16  422.75
563.54  443.75
563.91  430.75
564.29  399.25
564.66  425.25
565.04  458
565.41  448.75
565.79  382
566.16  423
566.54  468.25
566.91  493.5
567.29  479.75
567.66  488.5
568.04  453.25
568.41  435.25
568.79  455.5
569.16  497.25
569.54  421.75
569.91  468.5
570.29  474.75
570.66  432.25
571.04  418.75
571.41  438.5
571.79  433.25
572.16  440.5
572.54  494.5
572.91  496.5
573.28  478.5
573.66  468
574.03  492
574.41  439.25
574.78  504.25
575.16  447
575.53  429.5
575.91  496.25
576.28  455.75
576.66  462
577.03  475
577.4  477.5
577.78  526.5
578.15  463.25
578.53  478
578.9  474.25
579.28  463.25
579.65  495
580.02  421
580.4  504
580.77  489.75
581.15  482
581.52  468.75
581.89  483.75
582.27  460
582.64  506
583.02  455.5
583.39  497.5
583.76  479.75
584.14  474.75
584.51  512.25
584.89  470
585.26  532.25
585.63  491.25
586.01  500.25
586.38  559.25
586.75  473
587.13  512
587.5  471.5
587.88  569.5
588.25  535
588.62  527.25
589  506
589.37  539.75
589.74  557.25
590.12  549.75
590.49  525.25
590.86  525.25
591.24  538.5
591.61  524.5
591.98  523.75
592.36  493.75
592.73  544
593.1  523.75
593.48  531
593.85  537
594.22  537.5
594.6  589.75
594.97  570.25
595.34  593.5
595.72  578.75
596.09  580.25
596.46  568.25
596.84  623
597.21  619.25
597.58  634.75
597.96  643.5
598.33  650.5
598.7  655.75
599.07  668.5
599.45  677.5
599.82  672
600.19  679.25
600.57  654.25
600.94  754.5
601.31  757.25
601.68  707
602.06  763.5
602.43  758.75
602.8  696.75
603.17  768.5
603.55  785
603.92  791.25
604.29  754.75
604.67  798.25
605.04  821.25
605.41  856.75
605.78  862.25
606.16  787.5
606.53  872.5
606.9  835
607.27  854.25
607.64  885.25
608.02  841.75
608.39  873.5
608.76  816.75
609.13  885.25
609.51  877.5
609.88  893.5
610.25  864.25
610.62  878
610.99  846.75
611.37  872.25
611.74  841
612.11  875
612.48  817.5
612.85  851.5
613.23  820.25
613.6  871
613.97  779.75
614.34  837.5
614.71  748.75
615.09  788
615.46  775.25
615.83  781
616.2  762.5
616.57  776.5
616.95  742.75
617.32  727.75
617.69  741.75
618.06  688
618.43  716
618.8  677.25
619.17  646.25
619.55  629.5
619.92  664
620.29  641.75
620.66  616.5
621.03  630.75
621.4  657
621.78  620.25
622.15  605.25
622.52  633.5
622.89  598.75
623.26  549.5
623.63  557.75
624  568
624.37  584
624.75  552.75
625.12  565
625.49  536.75
625.86  582
626.23  541
626.6  532
626.97  462.5
627.34  442.25
627.71  536.25
628.09  489.75
628.46  481.75
628.83  444
629.2  519.5
629.57  512.25
629.94  515.75
630.31  491.5
630.68  515.75
631.05  488.75
631.42  487.25
631.79  462.75
632.16  525.25
632.54  461
632.91  466.5
633.28  518.75
633.65  449.25
634.02  470.75
634.39  482.25
634.76  470.25
635.13  501.5
635.5  465
635.87  458.25
636.24  514
636.61  480
636.98  426.25
637.35  466.75
637.72  416.75
638.09  490
638.46  517
638.83  482.25
639.2  503
639.57  477.5
639.94  515.75
640.31  500.5
640.68  529.5
641.05  505.25
641.42  503.75
641.79  453.5
642.16  497
642.53  479.25
642.9  451.5
643.27  456
643.64  451.5
644.01  426.5
644.38  437.5
644.75  481.5
645.12  490.75
645.49  418.75
645.86  486
646.23  430
646.6  437.25
646.97  448
647.34  396.5
647.71  439.75
648.08  419.75
648.45  452
648.82  416
649.19  463.25
649.56  450
649.93  479.5
650.3  429.25
650.67  486.75
651.04  471.75
651.41  442.5
651.78  441.5
652.15  467.5
652.52  442.25
652.89  448.75
653.25  446.25
653.62  423.25
653.99  480.5
654.36  481.5
654.73  454
655.1  484.25
655.47  454.75
655.84  464.25
656.21  459.75
656.58  444.25
656.95  431.5
657.32  475
657.68  419.75
658.05  458.5
658.42  446.5
658.79  479
659.16  512.75
659.53  449
659.9  466.25
660.27  455.25
660.64  436
661  429.75
661.37  427.75
661.74  422.5
662.11  431.25
662.48  422.75
662.85  450.25
663.22  499.5
663.59  472
663.95  455
664.32  453.5
664.69  432.5
665.06  488.5
665.43  440
665.8  442
666.16  470.75
666.53  433.25
666.9  414.25
667.27  390.25
667.64  427
668.01  428.5
668.37  420.75
668.74  442.75
669.11  430
669.48  414.75
669.85  423.5
670.22  455.25
670.58  398.5
670.95  403.25
671.32  407.75
671.69  402.25
672.06  435.25
672.42  439.5
672.79  434.25
673.16  438.75
673.53  461
673.9  364
674.26  390.75
674.63  396.75
675  379
675.37  412.5
675.74  387.5
676.1  376.5
676.47  408
676.84  371
677.21  365.75
677.57  400.5
677.94  380
678.31  387.75
678.68  378.25
679.05  396.75
679.41  433
679.78  398.75
680.15  367.5
680.52  411
680.88  325.5
681.25  352.75
681.62  389.5
681.99  380.75
682.35  348.5
682.72  343.25
683.09  364.5
683.45  394.75
683.82  346
684.19  426.25
684.56  353.25
684.92  355.75
685.29  372.5
685.66  376
686.02  375.25
686.39  327.25
686.76  317.75
687.13  384.75
687.49  373.75
687.86  356.75
688.23  361.75
688.59  288.75
688.96  353
689.33  364.5
689.69  393
690.06  375.5
690.43  383.5
690.8  429.25
691.16  376.5
691.53  420.5
691.9  407.75
692.26  439.75
692.63  390.5
693  370.5
693.36  336.25
693.73  377.75
694.1  355.5
694.46  314.75
694.83  343.25
695.2  324.5
695.56  358.25
695.93  380.25
696.29  343.75
696.66  359
697.03  375.25
697.39  342.25
697.76  387.75
698.13  352.25
698.49  329.5
698.86  339.25
699.23  351.75
699.59  334.25
699.96  320.5
700.32  334.75
700.69  355.5
701.06  334.5
701.42  373.75
701.79  329
702.15  378.25
702.52  316.5
702.89  349.5
703.25  372.5
703.62  340
703.98  359.5
704.35  343
704.72  338.25
705.08  389.25
705.45  345.5
705.81  374.5
706.18  373.5
706.55  354.5
706.91  350.5
707.28  347.75
707.64  357.75
708.01  362.25
708.37  340.5
708.74  360.25
709.11  328
709.47  356
709.84  303.5
710.2  384.25
710.57  375
710.93  346.75
711.3  325.25
711.66  378.5
712.03  376.75
712.39  332.5
712.76  332
713.13  363.25
713.49  360.75
713.86  363.5
714.22  344.75
714.59  372.5
714.95  334.25
715.32  314
715.68  347.5
716.05  300.75
716.41  335.75
716.78  338.25
717.14  349.25
717.51  331.5
717.87  297.5
718.24  315
718.6  322
718.97  304
719.33  422.5
719.7  325.75
720.06  355.75
720.43  331.75
720.79  356.5
721.16  301
721.52  335.25
721.89  328.5
722.25  373.5
722.62  345.25
722.98  362.5
723.34  338
723.71  348.5
724.07  337.5
724.44  345.25
724.8  324.75
725.17  332
725.53  303.25
725.9  335
726.26  339.5
726.63  334.75
726.99  289.5
727.35  299.5
727.72  338.5
728.08  329.5
728.45  316
728.81  303.5
729.18  347.5
729.54  312
729.9  286
730.27  293.75
730.63  315.5
731  522.25
731.36  1325.5
731.73  647
732.09  351
732.45  320.75
732.82  350.5
733.18  325.75
733.55  326.75
733.91  299.25
734.27  328.5
734.64  273.75
735  305.75
735.37  331.25
735.73  300.75
736.09  313.5
736.46  356.25
736.82  281
737.18  294
737.55  326.5
737.91  358.5
738.28  343.5
738.64  329.75
739  272
739.37  287
739.73  294.25
740.09  290.5
740.46  308.25
740.82  269.25
741.18  301.25
741.55  290.25
741.91  325.75
742.27  313.75
742.64  271.75
743  306.5
743.36  292.5
743.73  285.75
744.09  317
744.45  295.25
744.82  310
745.18  313.75
745.54  299.25
745.91  332
746.27  268
746.63  323.75
747  308
747.36  318.5
747.72  291
748.09  315.25
748.45  321
748.81  307.5
749.17  301
749.54  258.75
749.9  255.5
750.26  239
750.63  311.25
750.99  301
751.35  263.25
751.71  259
752.08  276.25
752.44  269
752.8  286.75
753.17  289
753.53  285
753.89  331
754.25  303.75
754.62  342.5
754.98  280.25
755.34  274.75
755.7  317.5
756.07  263
756.43  271.25
756.79  242.25
757.15  282.25
757.52  288
757.88  330.75
758.24  258.75
758.6  302.5
758.96  286.75
759.33  274.25
759.69  259
760.05  277.75
760.41  296
760.78  302
761.14  267.75
761.5  316.75
761.86  267.5
762.22  293.75
762.59  289.75
762.95  278.5
763.31  287.5
763.67  295
764.03  327.5
764.4  321.75
764.76  269
765.12  262.25
765.48  251.5
765.84  282.25
766.21  294.5
766.57  260.5
766.93  254.5
767.29  276.25
767.65  223.25
768.01  281.75
768.38  284.75
768.74  301.5
769.1  318.5
769.46  291
769.82  284.75
770.18  326
770.55  276
770.91  254
771.27  287.5
771.63  276.75
771.99  251.25
772.35  266.5
772.72  244.5
773.08  260.5
773.44  251.25
773.8  231.5
774.16  315.25
774.52  286.75
774.88  294
775.24  275.5
775.61  280.25
775.97  263.5
776.33  300.25
776.69  273.25
777.05  273.5
777.41  277
777.77  227.5
778.13  223.5
778.49  281.5
778.86  256.5
779.22  183.25
779.58  212.5
779.94  264.75
780.3  293.5
780.66  283.5
781.02  241.25
781.38  255.5
781.74  232
782.1  268.75
782.46  273.25
782.82  286.5
783.19  257.75
783.55  224.75
783.91  234
784.27  226.25
784.63  263.75
784.99  338.75
785.35  257
785.71  299.5
786.07  318.25
786.43  309.75
786.79  272.25
787.15  262.75
787.51  291
787.87  327.75
788.23  316
788.59  272.25
788.95  285.75
789.31  291.75
789.67  260.5
790.03  290
790.39  282.25
790.75  264.25
791.12  270.75
791.48  282.75
791.84  268
792.2  242
792.56  280
792.92  285.75
793.28  249.25
793.64  248.5
794  285.5
794.36  293.25
794.72  260.75
795.08  276.5
795.44  237
795.8  260.75
796.16  265.75
796.52  273.25
796.87  275.75
797.23  289.75
797.59  294.5
797.95  210
798.31  271.75
798.67  231
799.03  291.25
799.39  275.75
799.75  252
800.11  265
800.47  262
800.83  224
801.19  276.25
801.55  250.25
801.91  265.5
802.27  241.25
802.63  236.75
802.99  277
803.35  270.75
803.71  251.5
804.07  271.75
804.43  261
804.78  309.25
805.14  279.5
805.5  249.75
805.86  275.5
806.22  271.25
806.58  291
806.94  299
807.3  273.25
807.66  314
808.02  317.75
808.38  293
808.74  264
809.09  283.5
809.45  260.25
809.81  327.25
810.17  305.25
810.53  295.75
810.89  307.75
811.25  271.75
811.61  250
811.97  281.75
812.32  320.5
812.68  297.5
813.04  306.5
813.4  320.25
813.76  280.25
814.12  312
814.48  291
814.84  257
815.19  299.75
815.55  266.5
815.91  261.75
816.27  293.5
816.63  276.75
816.99  246
817.35  257.25
817.7  235
818.06  277.25
818.42  255.25
818.78  296.75
819.14  279.75
819.5  241.5
819.85  326
820.21  270.25
